# R                      rho                    T                      currdens               pres                   eta_T                  radiation              Psi_N                  
# time step #000000
  1.958257322910283E+00  2.725619833491805E+17  2.061687102876515E+01  1.334234774302179E+02  9.003231348395726E-01  2.516770937902702E-03  4.050430890635535E-03  1.039036447884487E+00
  1.967663308532466E+00  6.055516491141716E+17  2.649183270423651E+01  4.531639198841339E+02  2.570239360360827E+00  1.727865032999198E-03  2.266301426576010E-02  1.026513570445101E+00
  1.977069294154649E+00  1.356535469083352E+18  4.123874200620445E+01  1.716735424867454E+03  8.962866697011673E+00  8.896510766788221E-04  1.418973547753554E-01  1.013897590353347E+00
  1.986475279776832E+00  2.907250249388718E+18  7.527383956008714E+01  5.733916357389926E+03  3.506201413762545E+01  3.607544675073901E-04  8.805340512381610E-01  1.001187392382197E+00
  1.995881265399015E+00  5.608631831502158E+18  1.420729256311957E+02  7.198229817737892E+03  1.276669935534449E+02  1.391268127343205E-04  4.502241788772274E+00  9.883825978569764E-01
  2.005287251021198E+00  9.200066256945842E+18  2.440396629962864E+02 -1.036637008207780E+04  3.597176492754917E+02  6.179981808580496E-05  1.587710826683044E+01  9.754816206550814E-01
  2.014693236643381E+00  1.266371105374797E+19  3.613014221580519E+02  2.988122846611669E+03  7.330625593725167E+02  3.430625528354848E-05  3.660295170666563E+01  9.624803907336297E-01
  2.024099222265564E+00  1.521871427831263E+19  4.710085337352036E+02  2.147904698827717E+04  1.148463280809389E+03  2.304807497116580E-05  6.035727203580014E+01  9.493797516449979E-01
  2.033505207887747E+00  1.686755774805468E+19  5.669957635663384E+02  3.669571866563112E+04  1.532295036165405E+03  1.745050906199531E-05  8.134925991301145E+01  9.361823565773199E-01
  2.042911193509930E+00  1.794500365424058E+19  6.541167128610384E+02  5.489069774401284E+04  1.880655168010996E+03  1.408299266721738E-05  9.889492669670139E+01  9.228903684112086E-01
  2.052317179132114E+00  1.872630710670442E+19  7.382629881661330E+02  7.687820419806482E+04  2.214999398637606E+03  1.174522057665469E-05  1.144113522958756E+02  9.095065602262336E-01
  2.061723164754297E+00  1.936369430361292E+19  8.232307275057337E+02  1.014949344342230E+05  2.553995719957605E+03  9.974599412239873E-06  1.291803656752328E+02  8.960345877138197E-01
  2.071129150376480E+00  1.992954189865309E+19  9.109951029065642E+02  1.276857738522862E+05  2.908866121052818E+03  8.568479419924407E-06  1.439500901776373E+02  8.824787761758309E-01
  2.080535135998663E+00  2.045603902290439E+19  1.002461744253738E+03  1.548040568236178E+05  3.285486800010459E+03  7.422942721288722E-06  1.590875812566367E+02  8.688438935532786E-01
  2.089941121620845E+00  2.095701243979833E+19  1.097982066755204E+03  1.824911030156614E+05  3.686676181381000E+03  6.475673612205127E-06  1.747493840660312E+02  8.551350056286265E-01
  2.099347107243029E+00  2.143826036780214E+19  1.197633000483429E+03  2.105479664607476E+05  4.113615261532997E+03  5.684498942324367E-06  1.909854346140852E+02  8.413573951908453E-01
  2.108753092865212E+00  2.190215801675539E+19  1.301356384299549E+03  2.388568835354777E+05  4.566605863663455E+03  5.018610039508661E-06  2.077931502369762E+02  8.275165181025067E-01
  2.118159078487396E+00  2.234965207348418E+19  1.409025898979696E+03  2.673397060457572E+05  5.045452449531287E+03  4.454504046691424E-06  2.251439644712129E+02  8.136179655933327E-01
  2.127565064109578E+00  2.278111146324136E+19  1.520478945266977E+03  2.959373021967398E+05  5.549651282192236E+03  3.973810981527131E-06  2.429961043368991E+02  7.996673976615327E-01
  2.136971049731762E+00  2.319668178533840E+19  1.635530645912707E+03  3.245994027487939E+05  6.078479075637993E+03  3.561966185705354E-06  2.613005721175281E+02  7.856706310840973E-01
  2.146377035353944E+00  2.359643530934097E+19  1.753981096733636E+03  3.532800373642397E+05  6.631040539508956E+03  3.207306458598231E-06  2.800041970142295E+02  7.716335996600651E-01
  2.155783020976127E+00  2.398043273950068E+19  1.875618963060507E+03  3.819354745211647E+05  7.206294489837403E+03  2.900420053510935E-06  2.990512535066823E+02  7.575623377175852E-01
  2.165189006598311E+00  2.434874823219942E+19  2.000223466811770E+03  4.105233466242932E+05  7.803070527183969E+03  2.633662041297688E-06  3.183844328332038E+02  7.434629715497143E-01
  2.174594992220494E+00  2.470147924107502E+19  2.127565706248829E+03  4.390023310606013E+05  8.420081944390331E+03  2.400785444962564E-06  3.379455264529593E+02  7.293417107263667E-01
  2.184000977842678E+00  2.503875005504355E+19  2.257409702443241E+03  4.673320825709922E+05  9.055937306629516E+03  2.196656958908459E-06  3.576759763835420E+02  7.152048392488269E-01
  2.193406963464860E+00  2.536071471169182E+19  2.389514180059364E+03  4.954734599943525E+05  9.709155924835020E+03  2.017034856944168E-06  3.775174850144588E+02  7.010586172431164E-01
  2.202812949087044E+00  2.566755701524196E+19  2.523633745319602E+03  5.233886582506382E+05  1.037818089842749E+04  1.858396301699902E-06  3.974124987321783E+02  6.869092479916510E-01
  2.212218934709226E+00  2.595948351969321E+19  2.659517226840726E+03  5.510407384532638E+05  1.106137791735644E+04  1.717804000900179E-06  4.173042301001900E+02  6.727631444654798E-01
  2.221624920331409E+00  2.623672623127285E+19  2.796910043638362E+03  5.783940564038910E+05  1.175705411507195E+04  1.592795697351170E-06  4.371372586336653E+02  6.586267632877016E-01
  2.231030905953592E+00  2.649954153685844E+19  2.935555201191231E+03  6.054143709031956E+05  1.246347040587377E+04  1.481298027264121E-06  4.568578949008522E+02  6.445065894303126E-01
  2.240436891575776E+00  2.674820921120547E+19  3.075194428367555E+03  6.320689692800657E+05  1.317885457047851E+04  1.381557461970500E-06  4.764145319533973E+02  6.304091078862731E-01
  2.249842877197958E+00  2.698303521436771E+19  3.215571654817695E+03  6.583272471427837E+05  1.390142646985887E+04  1.292083361554802E-06  4.957582887007679E+02  6.163405416152093E-01
  2.259248862820142E+00  2.720434231782068E+19  3.356429592867212E+03  6.841598867260091E+05  1.462938763499931E+04  1.211606262177474E-06  5.148426543016690E+02  6.023072845481573E-01
  2.268654848442325E+00  2.741247019440501E+19  3.497511417009359E+03  7.095390743163354E+05  1.536093630571750E+04  1.139040353338240E-06  5.336238148201389E+02  5.883158155157392E-01
  2.278060834064508E+00  2.760777551493810E+19  3.638562635022665E+03  7.344387376919620E+05  1.609428343373706E+04  1.073453011047524E-06  5.520609716359688E+02  5.743725940885852E-01
  2.287466819686692E+00  2.779063094056802E+19  3.779332490262469E+03  7.588346735482680E+05  1.682766597986392E+04  1.014040194743837E-06  5.701165548178885E+02  5.604840034543116E-01
  2.296872805308875E+00  2.796142651297900E+19  3.919577422367712E+03  7.827050463417999E+05  1.755937066341388E+04  9.601054844199766E-07  5.877566611833035E+02  5.466560893393498E-01
  2.306278790931058E+00  2.812056043678861E+19  4.059056161142659E+03  8.060293177339287E+05  1.828771340685202E+04  9.110458437559701E-07  6.049503908567415E+02  5.328951212464162E-01
  2.315684776553240E+00  2.826844032558441E+19  4.197532589438497E+03  8.287886453118208E+05  1.901105854265348E+04  8.663366882091616E-07  6.216701591187505E+02  5.192073822821163E-01
  2.325090762175424E+00  2.840548244305379E+19  4.334777240201431E+03  8.509660123983537E+05  1.972783056458178E+04  8.255200864581012E-07  6.378918004194152E+02  5.055990916650764E-01
  2.334496747797606E+00  2.853211133480435E+19  4.470569468798403E+03  8.725464673726477E+05  2.043652885843578E+04  7.881947718494128E-07  6.535947149788855E+02  4.920762558498026E-01
  2.343902733419789E+00  2.864875808641983E+19  4.604698386743614E+03  8.935171339086231E+05  2.113573542675163E+04  7.540081473166617E-07  6.687618378282382E+02  4.786446386123017E-01
  2.353308719041972E+00  2.875585442442889E+19  4.736958846028974E+03  9.138663590243920E+05  2.182409598377200E+04  7.226506607178291E-07  6.833790274362618E+02  4.653102194180846E-01
  2.362714704664156E+00  2.885383407286656E+19  4.867154973973426E+03  9.335842049466831E+05  2.250033995024050E+04  6.938491482160057E-07  6.974353164851169E+02  4.520788959816384E-01
  2.372120690286339E+00  2.894313132142845E+19  4.995100849937371E+03  9.526624305496126E+05  2.316328501849197E+04  6.673619325653593E-07  7.109228095758508E+02  4.389564662145388E-01
  2.381526675908522E+00  2.902418069595714E+19  5.120622838665882E+03  9.710947557797781E+05  2.381184972602358E+04  6.429743354308325E-07  7.238367362027511E+02  4.259484330809428E-01
  2.390932661530706E+00  2.909741409579643E+19  5.243558215971700E+03  9.888764953089418E+05  2.444504627879783E+04  6.204955632224052E-07  7.361751004816965E+02  4.130601849175898E-01
  2.400338647152888E+00  2.916325820364543E+19  5.363753413212495E+03  1.006004146527571E+06  2.506197093161667E+04  5.997560198200306E-07  7.479383050081269E+02  4.002972134337380E-01
  2.409744632775072E+00  2.922213468518597E+19  5.481066463928355E+03  1.022475694864099E+06  2.566181569532160E+04  5.806042613027625E-07  7.591292022930891E+02  3.876648916483632E-01
  2.419150618397254E+00  2.927445896459293E+19  5.595367277273968E+03  1.038290553706808E+06  2.624386838854320E+04  5.629047631398574E-07  7.697529146712841E+02  3.751684696576227E-01
  2.428556604019437E+00  2.932063926816539E+19  5.706538331011196E+03  1.053449580758601E+06  2.680751444427711E+04  5.465359238136638E-07  7.798166918605116E+02  3.628130175125007E-01
  2.437962589641621E+00  2.936107574716144E+19  5.814475566653944E+03  1.067955133010626E+06  2.735223936288665E+04  5.313883107443256E-07  7.893297826368876E+02  3.506033364726102E-01
  2.447368575263804E+00  2.939615823732248E+19  5.919085345606789E+03  1.081810484270594E+06  2.787761098644575E+04  5.173636579872300E-07  7.983029641506250E+02  3.385443058102255E-01
  2.456774560885986E+00  2.942626618819475E+19  6.020286181812900E+03  1.095020041281414E+06  2.838328583236606E+04  5.043733332053929E-07  8.067485149150143E+02  3.266406956142589E-01
  2.466180546508170E+00  2.945176794013743E+19  6.118008920188971E+03  1.107589309152394E+06  2.886900732875907E+04  4.923372128870606E-07  8.146800484398314E+02  3.148971436974175E-01
  2.475586532130353E+00  2.947302000248727E+19  6.212196661420179E+03  1.119524823783871E+06  2.933460264048656E+04  4.811827255424647E-07  8.221123332318290E+02  3.033181550982887E-01
  2.484992517752536E+00  2.949036641967311E+19  6.302804633605887E+03  1.130834084515660E+06  2.977997915157539E+04  4.708440136646463E-07  8.290611187715549E+02  2.919081022236844E-01
  2.494398503374720E+00  2.950413824440105E+19  6.389800146256597E+03  1.141525509175528E+06  3.020512130977193E+04  4.612611837005723E-07  8.355429784825242E+02  2.806712082756168E-01
  2.503804488996902E+00  2.951465308876795E+19  6.473162630877656E+03  1.151608412078755E+06  3.061008786982543E+04  4.523796331984006E-07  8.415751689001561E+02  2.696115114247033E-01
  2.513210474619086E+00  2.952221459934050E+19  6.552882268462259E+03  1.161092759286849E+06  3.099500231985661E+04  4.441495982267291E-07  8.471753996381680E+02  2.587330099249991E-01
  2.522616460241269E+00  2.952711231016849E+19  6.628960319101960E+03  1.169989211061604E+06  3.136005172420916E+04  4.365255744913599E-07  8.523617442288918E+02  2.480395843946352E-01
  2.532022445863451E+00  2.952962144743492E+19  6.701408874823683E+03  1.178309077431741E+06  3.170548281750366E+04  4.294658611725963E-07  8.571525180453607E+02  2.375349870394447E-01
  2.541428431485635E+00  2.953000279458105E+19  6.770250481064008E+03  1.186064259836582E+06  3.203159758812523E+04  4.229321659544202E-07  8.615661592970550E+02  2.272228434297267E-01
  2.550834417107818E+00  2.952850263145766E+19  6.835517726200460E+03  1.193267194749534E+06  3.233874886103361E+04  4.168892541415891E-07  8.656211204969397E+02  2.171066544516632E-01
  2.560240402730002E+00  2.952535274391605E+19  6.897252802468744E+03  1.199930799382285E+06  3.262733591463027E+04  4.113046364163423E-07  8.693357703918989E+02  2.071897983555046E-01
  2.569646388352184E+00  2.952077049990505E+19  6.955507041392540E+03  1.206068419512100E+06  3.289780016129400E+04  4.061482905574855E-07  8.727283062080310E+02  1.974755328358525E-01
  2.579052373974367E+00  2.951495898801402E+19  7.010340426883839E+03  1.211693779454118E+06  3.315062091750650E+04  4.013924130797474E-07  8.758166759635935E+02  1.879669970845146E-01
  2.588458359596550E+00  2.950810721393975E+19  7.061821088414279E+03  1.216820934089989E+06  3.338631128183876E+04  3.970111973596825E-07  8.786185104483288E+02  1.786672137753071E-01
  2.597864345218734E+00  2.950039035077929E+19  7.110024777293318E+03  1.221464222933184E+06  3.360541413918733E+04  3.929806352183363E-07  8.811510644674470E+02  1.695790909348247E-01
  2.607270330840916E+00  2.949197003867587E+19  7.155034328253989E+03  1.225638226102842E+06  3.380849830216583E+04  3.892783393984433E-07  8.834311668213804E+02  1.607054236743532E-01
  2.616676316463099E+00  2.948299472968331E+19  7.196939108905433E+03  1.229357722119452E+06  3.399615479977429E+04  3.858833846793643E-07  8.854751784943371E+02  1.520488957649146E-01
  2.626082302085283E+00  2.947360007351298E+19  7.235834458540541E+03  1.232637647308786E+06  3.416899331560901E+04  3.827761657495768E-07  8.872989584170533E+02  1.436120810692489E-01
  2.635488287707465E+00  2.946390934033793E+19  7.271821118340536E+03  1.235493056670202E+06  3.432763877879996E+04  3.799382701555689E-07  8.889178362150749E+02  1.353974448529698E-01
  2.644894273329648E+00  2.945403387701332E+19  7.305004655254999E+03  1.237939086092162E+06  3.447272811022237E+04  3.773523648422196E-07  8.903465913689895E+02  1.274073450173161E-01
  2.654300258951831E+00  2.944407359299479E+19  7.335494880576984E+03  1.239990915640924E+06  3.460490711881671E+04  3.750020950826126E-07  8.915994381288474E+02  1.196440333666453E-01
  2.663706244574015E+00  2.943411747273984E+19  7.363405265295823E+03  1.241663733756284E+06  3.472482754706558E+04  3.728719946668044E-07  8.926900156253237E+02  1.121096570714541E-01
  2.673112230196199E+00  2.942424418542622E+19  7.388852165337545E+03  1.242972660983735E+06  3.483314346035168E+04  3.709474205873638E-07  8.936313757005885E+02  1.048063175491913E-01
  2.682518215818381E+00  2.941452259500199E+19  7.411954385199499E+03  1.243932739249883E+06  3.493050923203377E+04  3.692144712367584E-07  8.944359881216458E+02  9.773605118668183E-02
  2.691924201440565E+00  2.940501218800917E+19  7.432832922431837E+03  1.244558970165598E+06  3.501757838615689E+04  3.676599006649429E-07  8.951157539063736E+02  9.090073120718034E-02
  2.701330187062747E+00  2.939576373512647E+19  7.451610148553415E+03  1.244866234105859E+06  3.509500015564036E+04  3.662710836116062E-07  8.956820007201623E+02  8.430213068069743E-02
  2.710736172684931E+00  2.938681987998423E+19  7.468409237055208E+03  1.244869258053585E+06  3.516341720714508E+04  3.650359693903958E-07  8.961454904787865E+02  7.794192455054082E-02
  2.720142158307113E+00  2.937821573588686E+19  7.483353602568372E+03  1.244582583887374E+06  3.522346350431722E+04  3.639430423170627E-07  8.965164293351968E+02  7.182169268162776E-02
  2.729548143929298E+00  2.936997957250005E+19  7.496566218059241E+03  1.244020498495225E+06  3.527576177163722E+04  3.629812979818794E-07  8.968044767644597E+02  6.594298979987351E-02
  2.738954129551479E+00  2.936213348465406E+19  7.508168970253097E+03  1.243196954195395E+06  3.532092117557522E+04  3.621402231693027E-07  8.970187565187850E+02  6.030745316636844E-02
  2.748360115173663E+00  2.935469345872034E+19  7.518282939167384E+03  1.242125763214582E+06  3.535953867528893E+04  3.614097153705484E-07  8.971678862650965E+02  5.491643090028839E-02
  2.757766100795846E+00  2.934767026128203E+19  7.527027387205395E+03  1.240820449154395E+06  3.539219532626033E+04  3.607801021913522E-07  8.972599802872046E+02  4.977116594748359E-02
  2.767172086418029E+00  2.934107006653496E+19  7.534519229711279E+03  1.239294200734326E+06  3.541945457076570E+04  3.602421310989179E-07  8.973026650687939E+02  4.487283570703333E-02
  2.776578072040211E+00  2.933489531389198E+19  7.540872253707954E+03  1.237559712631346E+06  3.544185964839216E+04  3.597869825307624E-07  8.973030937381152E+02  4.022282932695170E-02
  2.785984057662396E+00  2.932914454814461E+19  7.546197375621779E+03  1.235629410427127E+06  3.545993468029240E+04  3.594062136328460E-07  8.972679597309268E+02  3.582228382817426E-02
  2.795390043284580E+00  2.932381314709592E+19  7.550602016933286E+03  1.233515383890270E+06  3.547418268815489E+04  3.590917702491026E-07  8.972035116200816E+02  3.167213855272352E-02
  2.804796028906762E+00  2.931889412694972E+19  7.554189497971147E+03  1.231229254492642E+06  3.548508380350254E+04  3.588360018521119E-07  8.971155732969692E+02  2.777337062255835E-02
  2.814202014528945E+00  2.931437871556866E+19  7.557058496367301E+03  1.228782081855777E+06  3.549309350588957E+04  3.586316758838094E-07  8.970095532128080E+02  2.412717222027628E-02
  2.823608000151128E+00  2.931025607077524E+19  7.559303169275510E+03  1.226184627496429E+06  3.549864294400881E+04  3.584719486525626E-07  8.968904400349118E+02  2.073431957308656E-02
  2.833013985773310E+00  2.930651427861148E+19  7.561012637359920E+03  1.223447164747184E+06  3.550213780530960E+04  3.583503852297701E-07  8.967628380492652E+02  1.759556199928430E-02
  2.842419971395494E+00  2.930314104175910E+19  7.562270419488217E+03  1.220579328511042E+06  3.550395657702192E+04  3.582609858940358E-07  8.966309800663630E+02  1.471194610228296E-02
  2.851825957017678E+00  2.930012328583836E+19  7.563154256055290E+03  1.217590369090450E+06  3.550444931585767E+04  3.581981877086169E-07  8.964986965362477E+02  1.208413399940416E-02
  2.861231942639860E+00  2.929744796136468E+19  7.563736146889722E+03  1.214489019327618E+06  3.550393886637130E+04  3.581568533278005E-07  8.963694699510024E+02  9.712757517370853E-03
  2.870637928262043E+00  2.929510265377846E+19  7.564081665029566E+03  1.211283351387387E+06  3.550271844067438E+04  3.581323133475321E-07  8.962464340371585E+02  7.598711395067386E-03
  2.880043913884226E+00  2.929307522846828E+19  7.564249661953405E+03  1.207980997807321E+06  3.550104985964454E+04  3.581203825951903E-07  8.961323366335305E+02  5.742502516579861E-03
  2.889449899506409E+00  2.929135453192566E+19  7.564292827217870E+03  1.204589009044814E+06  3.549916707640581E+04  3.581173172050756E-07  8.960296173733477E+02  4.144757818031764E-03
  2.898855885128591E+00  2.928993072046060E+19  7.564256363716790E+03  1.201113796938343E+06  3.549727039731396E+04  3.581199066652204E-07  8.959403505787122E+02  2.806153130623811E-03
  2.908261870750775E+00  2.928879503835751E+19  7.564178589317473E+03  1.197561285478660E+06  3.549552907026971E+04  3.581254299282998E-07  8.958662682823560E+02  1.727107954230029E-03
  2.917667856372958E+00  2.928794042910474E+19  7.564090960059328E+03  1.193936754595016E+06  3.549408216103546E+04  3.581316532187394E-07  8.958087996873664E+02  9.082632306723295E-04
  2.927073841995142E+00  2.928736151087003E+19  7.564016687950047E+03  1.190244899143125E+06  3.549303205857785E+04  3.581369280468522E-07  8.957689883126286E+02  3.500320705514783E-04
  2.936479827617325E+00  2.928705451602841E+19  7.563972659957824E+03  1.186489780559139E+06  3.549245342220724E+04  3.581400549895719E-07  8.957476022638227E+02  5.289699665028269E-05
  2.945885813239507E+00  2.928701781381607E+19  7.563967067722293E+03  1.182675055272306E+06  3.549238270302569E+04  3.581404521628857E-07  8.957450260596663E+02  1.729489323793367E-05
