# R                      ne                     Te                     pres                   zj                     Psi_N                  
# time step #000000
  1.862023669361640E+00  3.000163613112644E+17  1.130330157164048E+01  1.086652353405317E+00  7.764377917338039E+01  1.039419530596795E+00
  1.872031162852009E+00  3.860869990053626E+17  1.162894550676357E+01  1.438685556772092E+00  1.785074143556901E+02  1.029581854084679E+00
  1.882038656342377E+00  5.509725889663087E+17  1.292808171301517E+01  2.282466711190512E+00  4.546390044935791E+02  1.019657524910961E+00
  1.892046149832745E+00  8.549789898338931E+17  1.652708432403001E+01  4.527850262859001E+00  1.319613473088656E+03  1.009645190316118E+00
  1.902053643323113E+00  1.377042608813270E+18  2.476528384931959E+01  1.092775775996995E+01  4.230926867575763E+03  9.995434950064497E-01
  1.912061136813482E+00  2.173482017705948E+18  4.060862308379565E+01  2.828229749643404E+01  1.437174017324392E+04  9.893513831658529E-01
  1.922068630303849E+00  3.192984041675895E+18  6.560500998005358E+01  6.712342749162070E+01  4.311157194251564E+04  9.790686110557854E-01
  1.932076123794218E+00  4.253255059381256E+18  9.754677901868314E+01  1.329458336341593E+02  7.448790182342716E+04  9.686969674194363E-01
  1.942083617284586E+00  5.158178402840922E+18  1.316255940866410E+02  2.175590099570937E+02  9.079383489971205E+04  9.582385347111191E-01
  1.952091110774955E+00  5.825536941673400E+18  1.638364116755407E+02  3.058346999472841E+02  1.002623630066592E+05  9.476938058093178E-01
  1.962098604265323E+00  6.288529502951631E+18  1.929068053168735E+02  3.887201219574422E+02  1.088323578381379E+05  9.370623166009145E-01
  1.972106097755691E+00  6.614149015817363E+18  2.192345931845005E+02  4.646473117308408E+02  1.189812730643778E+05  9.263435236969269E-01
  1.982113591246059E+00  6.859223748061288E+18  2.436790188256798E+02  5.355912555472728E+02  1.313711833697455E+05  9.155370225215955E-01
  1.992121084736428E+00  7.060401927326321E+18  2.669904760407106E+02  6.040398140719487E+02  1.459310558667291E+05  9.046426305170628E-01
  2.002128578226795E+00  7.238417966596604E+18  2.896793864769438E+02  6.718953254124719E+02  1.624395048137722E+05  8.936603589080859E-01
  2.012136071717165E+00  7.404332324783409E+18  3.120602002658593E+02  7.403970100924250E+02  1.807134848177242E+05  8.825903966514177E-01
  2.022143565207532E+00  7.563902574506426E+18  3.343199203272331E+02  8.103050614840774E+02  2.006353439801581E+05  8.714331741348073E-01
  2.032151058697901E+00  7.720075960588900E+18  3.565693621187155E+02  8.820759240704272E+02  2.221391224886354E+05  8.601892903971895E-01
  2.042158552188269E+00  7.874345345594515E+18  3.788759173294083E+02  9.559866539019981E+02  2.451927070454296E+05  8.488595045916739E-01
  2.052166045678636E+00  8.027470206542944E+18  4.012832994683308E+02  1.032214983173500E+03  2.697839934483201E+05  8.374447331870363E-01
  2.062173539169005E+00  8.179845763187077E+18  4.238227598865955E+02  1.110886683377062E+03  2.959118594656102E+05  8.259460497086120E-01
  2.072181032659373E+00  8.331688427497798E+18  4.465192339549077E+02  1.192102400107616E+03  3.235807239021915E+05  8.143646857989393E-01
  2.082188526149741E+00  8.483128205236113E+18  4.693946540330034E+02  1.275952597367899E+03  3.527974183931264E+05  8.027020210527817E-01
  2.092196019640109E+00  8.634253969401311E+18  4.924696329929195E+02  1.362525520552272E+03  3.835693329380341E+05  7.909596069190576E-01
  2.102203513130477E+00  8.785135847098581E+18  5.157643502127266E+02  1.451911591417273E+03  4.159033771956919E+05  7.791391694962214E-01
  2.112211006620846E+00  8.935836249471603E+18  5.392990138374084E+02  1.544205868202837E+03  4.498054104533523E+05  7.672426006499270E-01
  2.122218500111214E+00  9.086415131373422E+18  5.630940673864368E+02  1.639509347145887E+03  4.852798838190690E+05  7.552719599374419E-01
  2.132225993601582E+00  9.236932489269887E+18  5.871702725730986E+02  1.737929679884426E+03  5.223296117687736E+05  7.432294763563460E-01
  2.142233487091951E+00  9.387449505459388E+18  6.115487259397642E+02  1.839581572071756E+03  5.609556142765281E+05  7.311175498782764E-01
  2.152240980582320E+00  9.538029027919077E+18  6.362508390366595E+02  1.944587002284187E+03  6.011569979271159E+05  7.189387527422709E-01
  2.162248474072687E+00  9.688735719181222E+18  6.612982972045888E+02  2.053075331875774E+03  6.429308593334757E+05  7.066958304904217E-01
  2.172255967563056E+00  9.839636033789764E+18  6.867130045072389E+02  2.165183340250202E+03  6.862722024918470E+05  6.943917027342593E-01
  2.182263461053424E+00  9.990798100082459E+18  7.125170185155064E+02  2.281055201030209E+03  7.311738657881657E+05  6.820294636460950E-01
  2.192270954543793E+00  1.014229154183707E+19  7.387324767654518E+02  2.400842404848505E+03  7.776264567091274E+05  6.696123821706609E-01
  2.202278448034161E+00  1.029418725629263E+19  7.653815157902708E+02  2.524703629438019E+03  8.256182934293031E+05  6.571439019549635E-01
  2.212285941524528E+00  1.044655715607294E+19  7.924861831804947E+02  2.652804555017720E+03  8.751353529698200E+05  6.446276410025713E-01
  2.222293435014896E+00  1.059947387861330E+19  8.200683429705418E+02  2.785317621732062E+03  9.261612259407497E+05  6.320673910470603E-01
  2.232300928505266E+00  1.075301046469294E+19  8.481495745493256E+02  2.922421724995753E+03  9.786770779186047E+05  6.194671166575001E-01
  2.242308421995633E+00  1.090723988569038E+19  8.767510426417660E+02  3.064301730942476E+03  1.032661574925455E+06  6.068309640271646E-01
  2.252315915486003E+00  1.106223468832158E+19  9.058933870387792E+02  3.211148040927885E+03  1.088090862591977E+06  5.941632573817256E-01
  2.262323408976370E+00  1.121806680697318E+19  9.355966445211154E+02  3.363156276919251E+03  1.144938626039707E+06  5.814684790476436E-01
  2.272330902466738E+00  1.137480699828149E+19  9.658801007036302E+02  3.520526566494156E+03  1.203176035850748E+06  5.687512780480166E-01
  2.282338395957106E+00  1.153252437861766E+19  9.967621602608388E+02  3.683462855120027E+03  1.262771744164819E+06  5.560164678644226E-01
  2.292345889447474E+00  1.169128593764740E+19  1.028260212703060E+03  3.852172128204559E+03  1.323691887987969E+06  5.432690238995892E-01
  2.302353382937842E+00  1.185115602883244E+19  1.060390494025503E+03  4.026863537345218E+03  1.385900099255658E+06  5.305140807129340E-01
  2.312360876428210E+00  1.201219583876368E+19  1.093167944784220E+03  4.207747426217213E+03  1.449357521493423E+06  5.177569290427075E-01
  2.322368369918578E+00  1.217446283633768E+19  1.126606064936328E+03  4.395034250351908E+03  1.514022832343200E+06  5.050030127099711E-01
  2.332375863408948E+00  1.233800971988157E+19  1.160716664213845E+03  4.588932803749856E+03  1.579852077675391E+06  4.922579629015518E-01
  2.342383356899315E+00  1.250288432920523E+19  1.195509810887770E+03  4.789649444681356E+03  1.646798897549904E+06  4.795275545447077E-01
  2.352390850389685E+00  1.266912941857522E+19  1.230993760786794E+03  4.997387141848074E+03  1.714814717984264E+06  4.668176745884340E-01
  2.362398343880052E+00  1.283678168736802E+19  1.267174731770296E+03  5.212343520417715E+03  1.783848651874837E+06  4.541343472002219E-01
  2.372405837370419E+00  1.300587117723684E+19  1.304056754765490E+03  5.434709211354455E+03  1.853847550006787E+06  4.414837294387514E-01
  2.382413330860789E+00  1.317642066802186E+19  1.341641526362549E+03  5.664666081491747E+03  1.924756056118565E+06  4.288721067609840E-01
  2.392420824351157E+00  1.334844490499999E+19  1.379928225506372E+03  5.902385105268393E+03  1.996516595012411E+06  4.163059007324395E-01
  2.402428317841524E+00  1.352194939036809E+19  1.418913230640307E+03  6.148023447168337E+03  2.069069182509558E+06  4.037917065603408E-01
  2.412435811331892E+00  1.369693132202290E+19  1.458590321691662E+03  6.401724443383626E+03  2.142352121606911E+06  3.913361762392347E-01
  2.422443304822261E+00  1.387337842769264E+19  1.498950420410653E+03  6.663614610835038E+03  2.216301825182827E+06  3.789460588804009E-01
  2.432450798312629E+00  1.405126828326138E+19  1.539981436444622E+03  6.933801144779798E+03  2.290852831132636E+06  3.666282050183742E-01
  2.442458291802998E+00  1.423056778859323E+19  1.581668150505337E+03  7.212369507747389E+03  2.365937874195006E+06  3.543895608212385E-01
  2.452465785293365E+00  1.441123256241966E+19  1.623992080497445E+03  7.499380763356115E+03  2.441487914154887E+06  3.422371693647034E-01
  2.462473278783734E+00  1.459320573377709E+19  1.666931204773939E+03  7.794867772356061E+03  2.517431907929951E+06  3.301782120144248E-01
  2.472480772274102E+00  1.477641910468219E+19  1.710460246332684E+03  8.098835096354389E+03  2.593697542125436E+06  3.182198944640989E-01
  2.482488265764471E+00  1.496079227522243E+19  1.754550486553029E+03  8.411255650544044E+03  2.670211099954344E+06  3.063694761278435E-01
  2.492495759254838E+00  1.514623208695685E+19  1.799169651293206E+03  8.732067711064923E+03  2.746897444605970E+06  2.946342783619298E-01
  2.502503252745207E+00  1.533263234010997E+19  1.844281862838699E+03  9.061172283583692E+03  2.823680094797233E+06  2.830216772714397E-01
  2.512510746235575E+00  1.551987356522131E+19  1.889847606511974E+03  9.398430506965062E+03  2.900481299946922E+06  2.715390962913172E-01
  2.522518239725944E+00  1.570782258993791E+19  1.935823648294328E+03  9.743660630949442E+03  2.977222010087425E+06  2.601940142757401E-01
  2.532525733216312E+00  1.589633234877606E+19  1.982163011241506E+03  1.009663536919013E+04  3.053821923722963E+06  2.489939606112017E-01
  2.542533226706679E+00  1.608524288283802E+19  2.028815247992007E+03  1.045708152743410E+04  3.130199974173984E+06  2.379464458948634E-01
  2.552540720197048E+00  1.627438073931247E+19  2.075726322917667E+03  1.082467673504434E+04  3.206274145589741E+06  2.270589934990199E-01
  2.562548213687417E+00  1.646355904564867E+19  2.122838658542748E+03  1.119904743459014E+04  3.281961534772224E+06  2.163391330399594E-01
  2.572555707177784E+00  1.665257769115600E+19  2.170091209071843E+03  1.157976715839937E+04  3.357178426324002E+06  2.057943916839357E-01
  2.582563200668152E+00  1.684122358635574E+19  2.217419553726316E+03  1.196635507063291E+04  3.431840368561130E+06  1.954322852725927E-01
  2.592570694158521E+00  1.702927100180378E+19  2.264756010209091E+03  1.235827481135177E+04  3.505862250557669E+06  1.852603092823750E-01
  2.602578187648890E+00  1.721648198709114E+19  2.312029768340339E+03  1.275493367745509E+04  3.579158380619289E+06  1.752859296358963E-01
  2.612585681139258E+00  1.740260687114190E+19  2.359167044072216E+03  1.315568217667611E+04  3.651642566745586E+06  1.655165733913371E-01
  2.622593174629625E+00  1.758738484305804E+19  2.406091253555380E+03  1.355981398617620E+04  3.723228199360648E+06  1.559596193401643E-01
  2.632600668119993E+00  1.777054457485787E+19  2.452723197315761E+03  1.396656626165392E+04  3.793828322663224E+06  1.466223904681508E-01
  2.642608161610362E+00  1.795180503975420E+19  2.498981293544944E+03  1.437512066793730E+04  3.863355753016264E+06  1.375121403861992E-01
  2.652615655100731E+00  1.813087633713999E+19  2.544781812542031E+03  1.478460475206219E+04  3.931723174169683E+06  1.286360435532569E-01
  2.662623148591099E+00  1.830746050920361E+19  2.590039108044885E+03  1.519409363346621E+04  3.998843206901200E+06  1.200011894786801E-01
  2.672630642081467E+00  1.848125249807159E+19  2.634665883399195E+03  1.560261236866842E+04  4.064628509813979E+06  1.116145733228509E-01
  2.682638135571836E+00  1.865194117066646E+19  2.678573474036143E+03  1.600913885131941E+04  4.128991885657363E+06  1.034830865357033E-01
  2.692645629062205E+00  1.881921040744527E+19  2.721672145235186E+03  1.641260725390820E+04  4.191846393793405E+06  9.561350754000036E-02
  2.702653122552571E+00  1.898274029291792E+19  2.763871414938109E+03  1.681191211527845E+04  4.253105484504140E+06  8.801249050587301E-02
  2.712660616042940E+00  1.914220838658284E+19  2.805080396213378E+03  1.720591303557599E+04  4.312683149406075E+06  8.068655309805682E-02
  2.722668109533308E+00  1.929729083958697E+19  2.845208098641789E+03  1.759343939392710E+04  4.370494006957445E+06  7.364207367083929E-02
  2.732675603023677E+00  1.944766373230168E+19  2.884163785444446E+03  1.797329599731330E+04  4.426453459740605E+06  6.688528020747142E-02
  2.742683096514044E+00  1.959300440679911E+19  2.921857328162879E+03  1.834426910489274E+04  4.480477844766217E+06  6.042224135203993E-02
  2.752690590004412E+00  1.973299282635565E+19  2.958199567160801E+03  1.870513288608535E+04  4.532484591114797E+06  5.425885766236058E-02
  2.762698083494782E+00  1.986731295883872E+19  2.993102677205025E+03  1.905465628123516E+04  4.582392386434663E+06  4.840085293892439E-02
  2.772705576985149E+00  1.999565417297776E+19  3.026480535263541E+03  1.939161020714529E+04  4.630121351584461E+06  4.285376564271000E-02
  2.782713070475516E+00  2.011771263585350E+19  3.058249087586163E+03  1.971477504214797E+04  4.675593222376220E+06  3.762294054664600E-02
  2.792720563965886E+00  2.023319277960310E+19  3.088326733788167E+03  2.002294853202887E+04  4.718731565339499E+06  3.271351712594305E-02
  2.802728057456255E+00  2.034180959726784E+19  3.116634927571812E+03  2.031495614095972E+04  4.759462281433773E+06  2.813038381881046E-02
  2.812735550946622E+00  2.044328858192489E+19  3.143098163222074E+03  2.058965524467322E+04  4.797713305536430E+06  2.387823265077250E-02
  2.822743044436990E+00  2.053736730452201E+19  3.167644385482289E+03  2.084594371552312E+04  4.833414901074240E+06  1.996154070993421E-02
  2.832750537927359E+00  2.062379698056458E+19  3.190205396837148E+03  2.108276854595046E+04  4.866499969844047E+06  1.638455035084101E-02
  2.842758031417726E+00  2.070234375750772E+19  3.210717191470932E+03  2.129913370321144E+04  4.896904291710184E+06  1.315125809771178E-02
  2.852765524908095E+00  2.077279122510430E+19  3.229120612690054E+03  2.149411132437849E+04  4.924567162441325E+06  1.026535782814846E-02
  2.862773018398463E+00  2.083493968047988E+19  3.245361163185086E+03  2.166684382179083E+04  4.949430934708809E+06  7.730318109789492E-03
  2.872780511888831E+00  2.088860741367212E+19  3.259389333850718E+03  2.181655124065070E+04  4.971441359086004E+06  5.549358428523266E-03
  2.882788005379199E+00  2.093363198541920E+19  3.271160933505511E+03  2.194253837688445E+04  4.990547935732365E+06  3.725423289332184E-03
  2.892795498869568E+00  2.096987247097521E+19  3.280637682135925E+03  2.204420438532326E+04  5.006704502386728E+06  2.261135609932575E-03
  2.902802992359936E+00  2.099720875161106E+19  3.287787029519085E+03  2.212104373894670E+04  5.019868872030719E+06  1.158863491705140E-03
  2.912810485850305E+00  2.101554195460828E+19  3.292582257137597E+03  2.217264983784534E+04  5.030003085214037E+06  4.206981871222394E-04
  2.922817979340672E+00  2.102479556717825E+19  3.295002771913102E+03  2.219872016936619E+04  5.037072334667764E+06  4.843018926003892E-05
  2.932825472831040E+00  2.102491815496173E+19  3.295034838654223E+03  2.219906563955125E+04  5.041051301394461E+06  4.350039775135733E-05
  2.942832966321410E+00  2.101588030309392E+19  3.292670759084256E+03  2.217360280815254E+04  5.041916563005313E+06  4.070830302904079E-04
  2.952840459811777E+00  2.099767460346806E+19  3.287908872568620E+03  2.212235433296331E+04  5.039646145780653E+06  1.140095284451225E-03
  2.962847953302145E+00  2.097031946113148E+19  3.280754577877592E+03  2.204545977198732E+04  5.034228252710288E+06  2.243096103510279E-03
  2.972855446792514E+00  2.093385694717868E+19  3.271219755403560E+03  2.194316875495812E+04  5.025654960974691E+06  3.716323315340436E-03
  2.982862940282882E+00  2.088835207439942E+19  3.259322582684159E+03  2.181583776836446E+04  5.013923559065109E+06  5.559717139097768E-03
  2.992870433773250E+00  2.083389280910606E+19  3.245087556781984E+03  2.166392857752115E+04  4.999036603329542E+06  7.772935687413601E-03
  3.002877927263618E+00  2.077059126347500E+19  3.228545808794038E+03  2.148800928809917E+04  4.981002569606973E+06  1.035528025711459E-02
  3.012885420753986E+00  2.069858180893846E+19  3.209734610881897E+03  2.128874628700552E+04  4.959835462649567E+06  1.330573791465679E-02
  3.022892914244354E+00  2.061802034966397E+19  3.188697197117519E+03  2.106689907308367E+04  4.935554763444714E+06  1.662299332466670E-02
  3.032900407734723E+00  2.052908297933881E+19  3.165482425811766E+03  2.082331302100867E+04  4.908185192193531E+06  2.030546210222385E-02
  3.042907901225091E+00  2.043196709650441E+19  3.140145078384041E+03  2.055891848950757E+04  4.877757387181602E+06  2.435120824763537E-02
  3.052915394715460E+00  2.032688939127874E+19  3.112745338318437E+03  2.027472097387513E+04  4.844307509331301E+06  2.875798353867300E-02
  3.062922888205828E+00  2.021408458711822E+19  3.083348472247528E+03  1.997179316790623E+04  4.807877098427159E+06  3.352324039319217E-02
  3.072930381696197E+00  2.009380431124054E+19  3.052024544297921E+03  1.965126720909215E+04  4.768512993087644E+06  3.864413506923375E-02
  3.082937875186563E+00  1.996631575250167E+19  3.018848074418682E+03  1.931432624634700E+04  4.726267190474961E+06  4.411753585270386E-02
  3.092945368676933E+00  1.983190007594862E+19  2.983897633112396E+03  1.896219534162695E+04  4.681196629265098E+06  4.994003879037871E-02
  3.102952862167300E+00  1.969085196356148E+19  2.947255727384167E+03  1.859613533683087E+04  4.633363386015632E+06  5.610793169543862E-02
  3.112960355657668E+00  1.954347762554333E+19  2.909008287741253E+03  1.821743275779356E+04  4.582834325928300E+06  6.261722183218793E-02
  3.122967849148036E+00  1.939009320593511E+19  2.869244257694177E+03  1.782739094906936E+04  4.529680896949631E+06  6.946364590448541E-02
  3.132975342638404E+00  1.923102323836027E+19  2.828055195107790E+03  1.742732156131814E+04  4.473978943237605E+06  7.664267653952021E-02
  3.142982836128773E+00  1.906659906749348E+19  2.785534863276166E+03  1.701853622440311E+04  4.415808505154316E+06  8.414952935292837E-02
  3.152990329619143E+00  1.889715724877152E+19  2.741778814885702E+03  1.660233849115163E+04  4.355253607570984E+06  9.197917058578431E-02
  3.162997823109510E+00  1.872303793642872E+19  2.696883971339656E+03  1.618001612384483E+04  4.292402038032210E+06  1.001263252911383E-01
  3.173005316599877E+00  1.854458327096264E+19  2.650948200272904E+03  1.575283379173502E+04  4.227345116044478E+06  1.085854861166037E-01
  3.183012810090246E+00  1.836213577537763E+19  2.604069893533815E+03  1.532202623561717E+04  4.160177455004288E+06  1.173509226379210E-01
  3.193020303580615E+00  1.817603677082203E+19  2.556347548346947E+03  1.488879195155856E+04  4.090996718007379E+06  1.264166912742072E-01
  3.203027797070983E+00  1.798662482185745E+19  2.507879354250033E+03  1.445428743676788E+04  4.019903369041060E+06  1.357766457573278E-01
  3.213035290561350E+00  1.779423422107458E+19  2.458762788263234E+03  1.401962203122015E+04  3.947000421031491E+06  1.454244481127046E-01
  3.223042784051720E+00  1.759919352301661E+19  2.409094220884573E+03  1.358585338154196E+04  3.872393182094086E+06  1.553535801412375E-01
  3.233050277542088E+00  1.740182422463686E+19  2.358968557631274E+03  1.315398373493499E+04  3.796189036786553E+06  1.655573507599669E-01
  3.243057771032455E+00  1.720244006896376E+19  2.308479036173424E+03  1.272495804660279E+04  3.718497458767671E+06  1.760288732408357E-01
  3.253065264522822E+00  1.700134469588409E+19  2.257716602048065E+03  1.229965896581989E+04  3.639429334443474E+06  1.867611322053855E-01
  3.263072758013193E+00  1.679883067444565E+19  2.206769635341505E+03  1.187890537459211E+04  3.559096796459999E+06  1.977469862771677E-01
  3.273080251503561E+00  1.659517853992711E+19  2.155723676711684E+03  1.146345133213950E+04  3.477613033005320E+06  2.089791742979267E-01
