# R                      rho                    T                      currdens               pres                   eta_T                  radiation              Psi_N                  
# time step #001000
  1.958199699075630E+00  1.217804129489019E+18  1.848478815274828E+01 -7.282891414374075E+01  3.606686687160608E+00  5.705662531934619E-04  1.705040948676657E-01  1.037733066088883E+00
  1.967643901604157E+00  7.866416703398157E+18  2.257738747561058E+01 -2.046293875142108E+03  2.845590015595305E+01  4.248701493539303E-04  1.239946199439256E+01  1.026034863569116E+00
  1.977088104132686E+00  1.470309259811314E+19  2.703264854703969E+01 -4.704893378599838E+03  6.360591993926693E+01  3.262796205007615E-04  5.377167253321970E+01  1.014244360251294E+00
  1.986532306661215E+00  2.190379240902537E+19  3.228904911084112E+01 -7.863219674187179E+03  1.129200631167266E+02  2.499061108569507E-04  1.376275645220677E+02  1.002359009272358E+00
  1.995976509189742E+00  2.957372113524264E+19  3.860138909016851E+01 -1.112290264423354E+04  1.821685090499771E+02  1.899551404589523E-04  2.720789591381978E+02  9.903781772256011E-01
  2.005420711718271E+00  3.763790557921719E+19  4.561157538282548E+01 -1.391474293907368E+04  2.752055536467471E+02  1.474840957219972E-04  4.506897980495983E+02  9.782975064833235E-01
  2.014864914246799E+00  4.582514541372185E+19  5.284357022604127E+01 -1.598474387922212E+04  3.908655842753074E+02  1.188812123967844E-04  6.503563255577743E+02  9.661187086017040E-01
  2.024309116775326E+00  5.379359711593053E+19  6.046715624983025E+01 -1.818652202377796E+04  5.254217474814633E+02  9.719612817287246E-05  8.467031409923062E+02  9.538336506990639E-01
  2.033753319303856E+00  6.140254601083180E+19  7.049745423187639E+01 -2.367185739119200E+04  6.940430959436658E+02  7.664505149911356E-05  1.032031430156969E+03  9.414456769352080E-01
  2.043197521832383E+00  6.870512889721541E+19  8.454386604854918E+01 -3.527041470884999E+04  9.273204441123451E+02  5.908563128476243E-05  1.207289809312030E+03  9.289453712968876E-01
  2.052641724360912E+00  7.550840981642881E+19  1.069815716921234E+02 -4.940256487108086E+04  1.296503130627717E+03  4.357316192113509E-05  1.391017511999902E+03  9.163337566484790E-01
  2.062085926889439E+00  8.131666028513536E+19  1.355290443187201E+02 -3.170162989315771E+04  1.787928812777015E+03  3.106571197113480E-05  1.591782878760360E+03  9.036003478197108E-01
  2.071530129417968E+00  8.580168653293407E+19  1.544345511191420E+02  1.482385387322303E+04  2.146564144827381E+03  2.435006797167923E-05  1.762014529659800E+03  8.907533757097652E-01
  2.080974331946495E+00  8.895167957550478E+19  1.625869188860590E+02  4.613326481975226E+04  2.306068206901316E+03  2.224459977057785E-05  1.888118654935312E+03  8.777961459611312E-01
  2.090418534475024E+00  9.095806115685299E+19  1.680001235034833E+02  6.399322367090215E+04  2.386034376568393E+03  2.177644036608988E-05  1.985707119491394E+03  8.647407104265770E-01
  2.099862737003551E+00  9.209952676324308E+19  1.722204723718022E+02  7.313465525666415E+04  2.429438358262224E+03  2.185491390255076E-05  2.050884297374660E+03  8.515842675368084E-01
  2.109306939532080E+00  9.236077429249688E+19  1.758107075539471E+02  7.662102436432292E+04  2.454438289696444E+03  2.194924306691760E-05  2.076618076598435E+03  8.383335605588711E-01
  2.118751142060607E+00  9.148468658973265E+19  1.815678472407341E+02  7.621914973268434E+04  2.484919434389361E+03  2.158626600939056E-05  2.055684552057083E+03  8.249814050595521E-01
  2.128195344589138E+00  8.955483119959776E+19  1.921068840207034E+02  7.927876728351117E+04  2.540592474524166E+03  2.067375138703579E-05  1.992403808035295E+03  8.115324919970057E-01
  2.137639547117665E+00  8.674848388965122E+19  2.085629174784430E+02  8.134541844424928E+04  2.630918316255200E+03  1.934904347129885E-05  1.893471829487447E+03  7.979793128662571E-01
  2.147083749646193E+00  8.305897438601999E+19  2.314797162981476E+02  9.193118310491354E+04  2.757583555254620E+03  1.761043509055446E-05  1.762946439680850E+03  7.843264607626077E-01
  2.156527952174721E+00  7.865931604628606E+19  2.595245756360465E+02  1.179372028068246E+05  2.895040903022400E+03  1.585708776854285E-05  1.607120347110456E+03  7.705704017549078E-01
  2.165972154703249E+00  7.385633753962648E+19  2.914786987347561E+02  1.498274607452019E+05  3.025998551601788E+03  1.436524749431439E-05  1.438781314997254E+03  7.567189386929221E-01
  2.175416357231777E+00  6.882139054314096E+19  3.285839724254405E+02  1.776061550040824E+05  3.170171974658467E+03  1.279518602541678E-05  1.271389228852898E+03  7.427778929120918E-01
  2.184860559760306E+00  6.364127379267915E+19  3.737652231452294E+02  2.048728486061286E+05  3.362852761336626E+03  1.067574032647490E-05  1.115077226595737E+03  7.287509786722295E-01
  2.194304762288835E+00  5.850509832920592E+19  4.293823122846603E+02  2.385553575250320E+05  3.622719561799866E+03  8.096636291404865E-06  9.787591137688171E+02  7.146484882939910E-01
  2.203748964817361E+00  5.370827408131572E+19  4.955854846955431E+02  2.868485627981914E+05  3.935524868303170E+03  5.773431512573563E-06  8.666319662106741E+02  7.004722418349534E-01
  2.213193167345890E+00  4.949444433328194E+19  5.695335148305894E+02  3.527049718473830E+05  4.262744452919244E+03  4.165608226837918E-06  7.771519886991666E+02  6.862403886908883E-01
  2.222637369874417E+00  4.591576216560068E+19  6.468419667283615E+02  4.283139587556834E+05  4.566647600682474E+03  3.173599911093822E-06  7.050225663962806E+02  6.719642740141529E-01
  2.232081572402946E+00  4.290266609122039E+19  7.237832200519074E+02  5.015541844517573E+05  4.828304165490060E+03  2.557059382756758E-06  6.454650905115609E+02  6.576663711382111E-01
  2.241525774931475E+00  4.034621550379840E+19  7.986940400789854E+02  5.668285484467582E+05  5.048307637551174E+03  2.148319408222342E-06  5.952098296594806E+02  6.433662156007718E-01
  2.250969977460003E+00  3.816473204296981E+19  8.716661340432606E+02  6.210333508303226E+05  5.239303115392578E+03  1.855576339417712E-06  5.527879220759069E+02  6.290776113922723E-01
  2.260414179988530E+00  3.630521702084447E+19  9.436483603973697E+02  6.649686641004665E+05  5.417284967678528E+03  1.630834964316687E-06  5.176081164750678E+02  6.148212022735853E-01
  2.269858382517058E+00  3.473380384442296E+19  1.015534351914779E+03  7.021401209178281E+05  5.595441019317159E+03  1.449617521600303E-06  4.892246759035582E+02  6.006032855122065E-01
  2.279302585045587E+00  3.342501062038143E+19  1.087546711681868E+03  7.328963680752602E+05  5.781187185268780E+03  1.299748354431202E-06  4.670481492278593E+02  5.864383454035094E-01
  2.288746787574115E+00  3.235137970478617E+19  1.159338213035346E+03  7.577720389044031E+05  5.976838321497480E+03  1.174618287935022E-06  4.502889311262360E+02  5.723342927839992E-01
  2.298190990102643E+00  3.148338082661134E+19  1.230355794651877E+03  7.789530294623957E+05  6.182219939108832E+03  1.069705507196340E-06  4.381125845387604E+02  5.582949482005755E-01
  2.307635192631171E+00  3.079245703282621E+19  1.300047358223127E+03  7.969210042070448E+05  6.396322365114216E+03  9.814072938593608E-07  4.297729770913622E+02  5.443322695150785E-01
  2.317079395159700E+00  3.024950608119779E+19  1.368091918906764E+03  8.113805961669597E+05  6.617953860967069E+03  9.065802565888066E-07  4.245746119772289E+02  5.304460261245327E-01
  2.326523597688228E+00  2.982935386535524E+19  1.434270904193715E+03  8.247389554895198E+05  6.845875741452459E+03  8.426873540507166E-07  4.219453423327051E+02  5.166438655159959E-01
  2.335967800216757E+00  2.951096884190385E+19  1.498450824853543E+03  8.380344505371058E+05  7.078947458967676E+03  7.877166640863637E-07  4.214254203304687E+02  5.029302321653812E-01
  2.345412002745285E+00  2.927549323077217E+19  1.560522269568560E+03  8.505754707972703E+05  7.315596843172783E+03  7.401123204108605E-07  4.225987191402589E+02  4.893050472924211E-01
  2.354856205273812E+00  2.910708612333090E+19  1.620352704755483E+03  8.635171461329325E+05  7.553970647857595E+03  6.986815061759087E-07  4.251102983808329E+02  4.757782682885678E-01
  2.364300407802340E+00  2.899249171799839E+19  1.677911304764918E+03  8.776176083562123E+05  7.792610384017042E+03  6.624190448372529E-07  4.286704136351005E+02  4.623491598960896E-01
  2.373744610330868E+00  2.892026568599920E+19  1.733196801364775E+03  8.915387413304390E+05  8.030061404623517E+03  6.305073980603209E-07  4.330248484828544E+02  4.490238358635767E-01
  2.383188812859396E+00  2.888093851163436E+19  1.786273875907969E+03  9.059182028824574E+05  8.265206655901358E+03  6.022562345997285E-07  4.379657301568093E+02  4.358086891436698E-01
  2.392633015387925E+00  2.886669941752759E+19  1.837260581679035E+03  9.209555519052080E+05  8.497242217315161E+03  5.770851485687730E-07  4.433231261447111E+02  4.227034523584864E-01
  2.402077217916453E+00  2.887120398745175E+19  1.886239112614570E+03  9.363577179138258E+05  8.725310318625459E+03  5.545408864226425E-07  4.489526449700724E+02  4.097190798743032E-01
  2.411521420444982E+00  2.888926335215909E+19  1.933333015109839E+03  9.514376210100707E+05  8.948848401928753E+03  5.342357601084891E-07  4.547376979351102E+02  3.968561584434542E-01
  2.420965622973509E+00  2.891671995612000E+19  1.978648541428758E+03  9.661626053288380E+05  9.167347299283891E+03  5.158572290993607E-07  4.605819485076642E+02  3.841208772262011E-01
  2.430409825502037E+00  2.895045218933930E+19  2.022298541133950E+03  9.815976754541981E+05  9.380518840684055E+03  4.991425220383802E-07  4.664147735673051E+02  3.715205222115031E-01
  2.439854028030566E+00  2.898791452560944E+19  2.064418944156359E+03  9.967506313623975E+05  9.588270290141216E+03  4.838626226433608E-07  4.721805504154299E+02  3.590553432471569E-01
  2.449298230559094E+00  2.902709473168688E+19  2.105100657510025E+03  1.010136161914292E+06  9.790402957382328E+03  4.698386405516849E-07  4.778315003573143E+02  3.467367288487910E-01
  2.458742433087622E+00  2.906668255238445E+19  2.144453031451730E+03  1.024454429664881E+06  9.986988613327456E+03  4.569116729942463E-07  4.833413213241654E+02  3.345642122008118E-01
  2.468186635616151E+00  2.910567520682909E+19  2.182520636982285E+03  1.039042413399327E+06  1.017787118704787E+04  4.449652175406940E-07  4.886846959751857E+02  3.225460873418128E-01
  2.477630838144679E+00  2.914325664256895E+19  2.219331875366061E+03  1.050821008387386E+06  1.036286208838574E+04  4.339032291486117E-07  4.938392797515272E+02  3.106872843833823E-01
  2.487075040673207E+00  2.917892025633389E+19  2.254946615005076E+03  1.063983278930652E+06  1.054201379115151E+04  4.236335157256072E-07  4.987952404867151E+02  2.989894380896744E-01
  2.496519243201736E+00  2.921239274329658E+19  2.289498095871904E+03  1.076577857256952E+06  1.071579835477574E+04  4.140559506764819E-07  5.035575600838885E+02  2.874626132888809E-01
  2.505963445730264E+00  2.924330801537643E+19  2.323309824544921E+03  1.087885657521905E+06  1.088554379801728E+04  4.050331645557069E-07  5.081472920423512E+02  2.761054815101737E-01
  2.515407648258791E+00  2.927154873898041E+19  2.356829476134142E+03  1.098783770130819E+06  1.105325504205127E+04  3.964129667663260E-07  5.126061359762182E+02  2.649288337518366E-01
  2.524851850787319E+00  2.929696148858474E+19  2.390483462661276E+03  1.108315758986055E+06  1.122082664638245E+04  3.880653916719691E-07  5.169713877144425E+02  2.539314930148138E-01
  2.534296053315848E+00  2.931951640096506E+19  2.424320750743861E+03  1.111640381779854E+06  1.138842787625999E+04  3.799633852466516E-07  5.212449316391408E+02  2.431216440053622E-01
  2.543740255844376E+00  2.933965162852504E+19  2.457554321645523E+03  1.122004415016292E+06  1.155248143688952E+04  3.722704538441070E-07  5.253597452867850E+02  2.324991403875038E-01
  2.553184458372904E+00  2.935700418734925E+19  2.488637692453070E+03  1.127469814278219E+06  1.170551262821619E+04  3.652967070131342E-07  5.291446530916523E+02  2.220687594857875E-01
  2.562628660901433E+00  2.937277034029777E+19  2.515585937921226E+03  1.136371015380291E+06  1.183858853062124E+04  3.594147281470518E-07  5.324419255437153E+02  2.118344821888516E-01
  2.572072863429960E+00  2.938721882244990E+19  2.536578831974147E+03  1.137350922703360E+06  1.194319971006730E+04  3.549355818856889E-07  5.350810874864592E+02  2.017976463784843E-01
  2.581517065958487E+00  2.939945025906219E+19  2.550779696721153E+03  1.135911804354870E+06  1.201500347865045E+04  3.519591443406405E-07  5.369502451233252E+02  1.919631912797252E-01
  2.590961268487017E+00  2.940956719153148E+19  2.558705715711140E+03  1.180462590230865E+06  1.205645049832213E+04  3.503217740344664E-07  5.381094788777355E+02  1.823295536555971E-01
  2.600405471015545E+00  2.941522721956729E+19  2.562541683448625E+03  1.224848894397382E+06  1.207683816116905E+04  3.495417023749670E-07  5.386957756007030E+02  1.729150833987707E-01
  2.609849673544073E+00  2.941464382585622E+19  2.564960252470363E+03  1.232089006921363E+06  1.208798946648999E+04  3.490595754956841E-07  5.389130258728430E+02  1.637304379211455E-01
  2.619293876072601E+00  2.941094953793656E+19  2.567783492772392E+03  1.227508823190948E+06  1.209976272047700E+04  3.485023036994299E-07  5.390576172410294E+02  1.547844888447724E-01
  2.628738078601129E+00  2.940634102299386E+19  2.571772867203420E+03  1.224477542557341E+06  1.211664742986561E+04  3.477182265234916E-07  5.392852606447610E+02  1.460739605672466E-01
  2.638182281129657E+00  2.940094442566777E+19  2.576920156423933E+03  1.222118387542840E+06  1.213865153377961E+04  3.467122306341178E-07  5.395989668833824E+02  1.376030813294868E-01
  2.647626483658185E+00  2.939508498308518E+19  2.583196218160643E+03  1.219544118106953E+06  1.216576645282991E+04  3.454927380758998E-07  5.400070063564874E+02  1.293698256544709E-01
  2.657070686186714E+00  2.938893982344800E+19  2.590586334623880E+03  1.216215771248454E+06  1.219799622704051E+04  3.440645867311937E-07  5.405141425401541E+02  1.213768767877467E-01
  2.666514888715241E+00  2.938268802167551E+19  2.599153489353671E+03  1.211525012525713E+06  1.223571218615512E+04  3.424156521196556E-07  5.411331943033933E+02  1.136242499824385E-01
  2.675959091243770E+00  2.937653388638239E+19  2.608950003798405E+03  1.206773841626037E+06  1.227924293299611E+04  3.405352845889232E-07  5.418767916164577E+02  1.061109736287160E-01
  2.685403293772298E+00  2.937049838028168E+19  2.619913517266177E+03  1.203594708693467E+06  1.232830076404529E+04  3.384362624288898E-07  5.427393090533801E+02  9.883984983536548E-02
  2.694847496300826E+00  2.936461512425349E+19  2.631791438603957E+03  1.202415111139156E+06  1.238170774680893E+04  3.361708620669297E-07  5.436963600043791E+02  9.180720071086532E-02
  2.704291698829356E+00  2.935908714263499E+19  2.644330775443242E+03  1.205322000564325E+06  1.243835638561487E+04  3.337908914328462E-07  5.447298827977734E+02  8.501923933067761E-02
  2.713735901357884E+00  2.935394192722366E+19  2.657247752737964E+03  1.209227445451321E+06  1.249692368572269E+04  3.313539232627845E-07  5.458124752816561E+02  7.847302910884239E-02
  2.723180103886411E+00  2.934910426274291E+19  2.670282394207198E+03  1.213715434909473E+06  1.255615615645179E+04  3.289119320075912E-07  5.469154831320900E+02  7.217601377224804E-02
  2.732624306414940E+00  2.934447733320007E+19  2.683176917911544E+03  1.216875657798292E+06  1.261480208056082E+04  3.265152197865058E-07  5.480098077975160E+02  6.612827235946117E-02
  2.742068508943468E+00  2.933998686735779E+19  2.695699638507418E+03  1.218828041174148E+06  1.267174251181430E+04  3.242078824085167E-07  5.490698940701000E+02  6.033295888569441E-02
  2.751512711471995E+00  2.933557421019261E+19  2.707638603042151E+03  1.220265772774337E+06  1.272595790286133E+04  3.220283645724197E-07  5.500729075742611E+02  5.479490602735528E-02
  2.760956914000523E+00  2.933119359986339E+19  2.718841973095248E+03  1.220243530272376E+06  1.277671659621380E+04  3.200025881880450E-07  5.510025314253880E+02  4.951201555099230E-02
  2.770401116529052E+00  2.932681757969232E+19  2.729172905626959E+03  1.220428840751990E+06  1.282336488632705E+04  3.181524242058521E-07  5.518447094244941E+02  4.449009050035138E-02
  2.779845319057580E+00  2.932242907073600E+19  2.738542706755799E+03  1.219907584532184E+06  1.286547995641001E+04  3.164900872735910E-07  5.525905967184483E+02  3.972838574572185E-02
  2.789289521586108E+00  2.931804321126504E+19  2.746916207730059E+03  1.218838687857687E+06  1.290290430501104E+04  3.150177983942578E-07  5.532378075025426E+02  3.522830195265256E-02
  2.798733724114636E+00  2.931368969494302E+19  2.754260562273139E+03  1.218392751383763E+06  1.293549784404623E+04  3.137373013060510E-07  5.537847399643401E+02  3.099402129356282E-02
  2.808177926643164E+00  2.930943677348726E+19  2.760607594588350E+03  1.217107152251623E+06  1.296344172460426E+04  3.126392090477688E-07  5.542375305469570E+02  2.702346914713223E-02
  2.817622129171693E+00  2.930530579375194E+19  2.766007161705890E+03  1.215936610265229E+06  1.298698108792871E+04  3.117115375462341E-07  5.546022484530247E+02  2.331979434770090E-02
  2.827066331700221E+00  2.930133701573090E+19  2.770517446682966E+03  1.215392874410005E+06  1.300640871759778E+04  3.109414652663736E-07  5.548864218863812E+02  1.988551214972380E-02
  2.836510534228750E+00  2.929762321014160E+19  2.774238822355589E+03  1.213934565854474E+06  1.302223892361981E+04  3.103095663728039E-07  5.551035671874347E+02  1.671932128321232E-02
  2.845954736757278E+00  2.929419648147229E+19  2.777263444884865E+03  1.212049845445863E+06  1.303492017471980E+04  3.097984343486000E-07  5.552640503641103E+02  1.382446952646542E-02
  2.855398939285805E+00  2.929104943128051E+19  2.779692030495727E+03  1.209507491334469E+06  1.304492363305911E+04  3.093897379937135E-07  5.553775148928756E+02  1.120255913705722E-02
  2.864843141814334E+00  2.928817391306226E+19  2.781620341979839E+03  1.205904845809123E+06  1.305269655748482E+04  3.090663810529884E-07  5.554530334863971E+02  8.852363231274842E-03
  2.874287344342862E+00  2.928569171008394E+19  2.783111983237696E+03  1.203074134131224E+06  1.305859265533617E+04  3.088169758964201E-07  5.555014297582829E+02  6.776118318710571E-03
  2.883731546871390E+00  2.928352507665860E+19  2.784243650855286E+03  1.200809029340120E+06  1.306293827257340E+04  3.086281985836363E-07  5.555272308169408E+02  4.974946633422823E-03
  2.893175749399918E+00  2.928152081040879E+19  2.785077850456457E+03  1.196879715279839E+06  1.306595928252797E+04  3.084892938835172E-07  5.555307201604023E+02  3.448092298119283E-03
  2.902619951928447E+00  2.928029824451276E+19  2.785615315288406E+03  1.194466395994859E+06  1.306793600413232E+04  3.083999223501826E-07  5.555353533160635E+02  2.197722894487468E-03
  2.912064154456975E+00  2.927996063981979E+19  2.785869295526759E+03  1.195362666938390E+06  1.306897712997890E+04  3.083577284438887E-07  5.555462118115164E+02  1.225106739858670E-03
  2.921508356985503E+00  2.927859532492787E+19  2.785927801475249E+03  1.194044267691253E+06  1.306864220328946E+04  3.083480134357016E-07  5.554996020049974E+02  5.310859704443292E-04
  2.930952559514031E+00  2.927753841182093E+19  2.785850543124843E+03  1.189378546813185E+06  1.306780804745751E+04  3.083608409694881E-07  5.554524708065710E+02  1.252760322794901E-04
  2.940396762042560E+00  2.927729347411621E+19  2.785758859244570E+03  1.181935751760236E+06  1.306726861639539E+04  3.083760648561006E-07  5.554355000305136E+02  1.446706594248167E-06
  2.949840964571089E+00  2.927679752341420E+19  2.785879511002177E+03  1.181309705156112E+06  1.306761325725093E+04  3.083560309842141E-07  5.554278713287260E+02  1.219628199102668E-04
